  time (s)              T(t) (K)              P(t) (Pa)           Kinetic En. (n.u.)     Potential En. (n.u.) Total En. (n.u.)
  0.0000e+000           99.70158956            0.00000000        5262.40840058       -45646.37302831       -40383.96462773 
  5.0000e-015           98.86425604            0.00000000        5218.21260611       -45557.89232528       -40339.67971917 
  1.0000e-014           97.48262212            0.00000000        5145.28777152       -45411.89655293       -40266.60878141 
  1.5000e-014           95.58082121            0.00000000        5044.90769583       -45210.92981692       -40166.02212109 
  2.0000e-014           93.19289788            0.00000000        4918.86930648       -44958.58168579       -40039.71237931 
  2.5000e-014           90.36328263            0.00000000        4769.51771510       -44659.53803955       -39890.02032445 
  3.0000e-014           87.14723539            0.00000000        4599.76962906       -44319.62888992       -39719.85926086 
  3.5000e-014           83.61111707            0.00000000        4413.12768221       -43945.85829834       -39532.73061613 
  4.0000e-014           79.83231407            0.00000000        4213.67645252       -43546.39787033       -39332.72141781 
  4.5000e-014           75.89861635            0.00000000        4006.04963330       -43130.52261398       -39124.47298067 
  5.0000e-014           71.90684637            0.00000000        3795.35766773       -42708.46752087       -38913.10985314 
  5.5000e-014           67.96057033            0.00000000        3587.06694430       -42291.18669492       -38704.11975061 
  6.0000e-014           64.16680738            0.00000000        3386.82610485       -41890.00571641       -38503.17961156 
  6.5000e-014           60.63179177            0.00000000        3200.24236087       -41516.17270736       -38315.93034649 
  7.0000e-014           57.45602255            0.00000000        3032.62021296       -41180.33282726       -38147.71261430 
  7.5000e-014           54.72902011            0.00000000        2888.68468837       -40891.97076953       -38003.28608116 
  8.0000e-014           52.52434374            0.00000000        2772.31836497       -40658.88052450       -37886.56215953 
  8.5000e-014           50.89546180            0.00000000        2686.34338653       -40486.72573931       -37800.38235279 
  9.0000e-014           49.87297930            0.00000000        2632.37513453       -40378.74480237       -37746.36966784 
  9.5000e-014           49.46353617            0.00000000        2610.76407515       -40335.63409390       -37724.87001875 
  1.0000e-013           49.65044186            0.00000000        2620.62925496       -40355.61626701       -37734.98701205 
  1.0500e-013           50.39587407            0.00000000        2659.97435172       -40434.67490434       -37774.70055262 
  1.1000e-013           51.64429197            0.00000000        2725.86783311       -40566.91801257       -37841.05017946 
  1.1500e-013           53.32662332            0.00000000        2814.66395675       -40745.02320856       -37930.35925181 
  1.2000e-013           55.36477693            0.00000000        2922.24094431       -40960.71681122       -38038.47586691 
  1.2500e-013           57.67608773            0.00000000        3044.23560263       -41205.24513915       -38161.00953652 
  1.3000e-013           60.17739372            0.00000000        3176.25850931       -41469.80618746       -38293.54767815 
  1.3500e-013           62.78854643            0.00000000        3314.07930066       -41745.92082842       -38431.84152776 
  1.4000e-013           65.43525202            0.00000000        3453.77662959       -42025.73281063       -38571.95618104 
  1.4500e-013           68.05121756            0.00000000        3591.85144933       -42302.23502967       -38710.38358034 
  1.5000e-013           70.57963293            0.00000000        3725.30523226       -42569.42543881       -38844.12020655 
  1.5500e-013           72.97405432            0.00000000        3851.68660005       -42822.39967465       -38970.71307460 
  1.6000e-013           75.19877323            0.00000000        3969.11080067       -43057.38935937       -39088.27855870 
  1.6500e-013           77.22876021            0.00000000        4076.25674063       -43271.75555751       -39195.49881689 
  1.7000e-013           79.04926878            0.00000000        4172.34607735       -43463.94643424       -39291.60035689 
  1.7500e-013           80.65517524            0.00000000        4257.10837314       -43633.42713646       -39376.31876333 
  1.8000e-013           82.05011765            0.00000000        4330.73565124       -43780.58858075       -39449.85292951 
  1.8500e-013           83.24548413            0.00000000        4393.82899439       -43906.64041813       -39512.81142374 
  1.9000e-013           84.25928829            0.00000000        4447.33918975       -44013.49216097       -39566.15297121 
  1.9500e-013           85.11496072            0.00000000        4492.50294084       -44103.62548153       -39611.12254069 
  2.0000e-013           85.84008022            0.00000000        4530.77590081       -44179.96015586       -39649.18425505 
  2.0500e-013           86.46506819            0.00000000        4563.76375951       -44245.71608553       -39681.95232601 
  2.1000e-013           87.02187324            0.00000000        4593.15281563       -44304.27423765       -39711.12142203 
  2.1500e-013           87.54267988            0.00000000        4620.64181759       -44359.04006230       -39738.39824471 
  2.2000e-013           88.05868251            0.00000000        4647.87725672       -44413.31376351       -39765.43650679 
  2.2500e-013           88.59897244            0.00000000        4676.39461821       -44470.17246315       -39793.77784494 
  2.3000e-013           89.18958728            0.00000000        4707.56820868       -44532.36953896       -39824.80133028 
  2.3500e-013           89.85276848            0.00000000        4742.57196646       -44602.25600373       -39859.68403727 
  2.4000e-013           90.60646109            0.00000000        4782.35306055       -44681.72758866       -39899.37452811 
  2.4500e-013           91.46407190            0.00000000        4827.61912279       -44772.19925236       -39944.58012957 
  2.5000e-013           92.43447945            0.00000000        4878.83877584       -44874.60644090       -39995.76766506 
  2.5500e-013           93.52226723            0.00000000        4936.25394429       -44989.43003873       -40053.17609444 
  2.6000e-013           94.72813401            0.00000000        4999.90151022       -45116.74007406       -40116.83856384 
  2.6500e-013           96.04942545            0.00000000        5069.64137309       -45256.25223253       -40186.61085944 
  2.7000e-013           97.48073076            0.00000000        5145.18794275       -45407.39118351       -40262.20324076 
  2.7500e-013           99.01449495            0.00000000        5226.14245462       -45569.35546659       -40343.21301197 
  2.8000e-013          100.64160835            0.00000000        5312.02408694       -45741.17989240       -40429.15580547 
  2.8500e-013          102.35194755            0.00000000        5402.29850905       -45921.79272810       -40519.49421905 
  2.9000e-013          104.13485245            0.00000000        5496.40306385       -46110.06609474       -40613.66303089 
  2.9500e-013          105.97953271            0.00000000        5593.76822054       -46304.85886971       -40711.09064917 
  3.0000e-013          107.87540214            0.00000000        5693.83522324       -46505.05195939       -40811.21673615 
  3.0500e-013          109.81234307            0.00000000        5796.07004512       -46709.57616854       -40913.50612342 
  3.1000e-013          111.78090525            0.00000000        5899.97388628       -46917.43314522       -41017.45925894 
  3.1500e-013          113.77244564            0.00000000        6005.09055407       -47127.71008227       -41122.61952820 
  3.2000e-013          115.77921694            0.00000000        6111.01113401       -47339.58899938       -41228.57786538 
  3.2500e-013          117.79441267            0.00000000        6217.37636830       -47552.35145219       -41334.97508389 
  3.3000e-013          119.81217522            0.00000000        6323.87708334       -47765.37936275       -41441.50227940 
  3.3500e-013          121.82757053            0.00000000        6430.25285182       -47978.15234759       -41547.89949578 
  3.4000e-013          123.83652933            0.00000000        6536.28889110       -48190.24153916       -41653.95264806 
  3.4500e-013          125.83575258            0.00000000        6641.81107261       -48401.29962913       -41759.48855652 
  3.5000e-013          127.82257911            0.00000000        6746.67893531       -48611.04689168       -41864.36795637 
  3.5500e-013          129.79481745            0.00000000        6850.77681021       -48819.25337492       -41968.47656471 
  3.6000e-013          131.75055122            0.00000000        6954.00354787       -49025.71823359       -42071.71468572 
  3.6500e-013          133.68793584            0.00000000        7056.26178804       -49230.24809458       -42173.98630654 
  3.7000e-013          135.60501085            0.00000000        7157.44805491       -49432.63705972       -42275.18900481 
  3.7500e-013          137.49955365            0.00000000        7257.44503596       -49632.65111385       -42375.20607789 
  3.8000e-013          139.36899465     72012673.72073212        7356.11710378       -49830.01910949       -42473.90200571 
  3.8500e-013          141.21086664            0.00000000        7453.33403582       -50024.48050947       -42571.14647365 
  3.9000e-013          143.02141386     62196589.80076800        7548.89759635       -50215.63807283       -42666.74047648 
  3.9500e-013          144.79865738            0.00000000        7642.70333470       -50403.28288805       -42760.57955335 
  4.0000e-013          146.53718330     70402922.48328328        7734.46549671       -50586.84282116       -42852.37732446 
  4.0500e-013          148.23378146    142086623.07444799        7824.01464487       -50765.97926879       -42941.96462392 
  4.1000e-013          149.87651687    145513332.77837273        7910.72083136       -50939.43313637       -43028.71230501 
  4.1500e-013          151.46262963     56079128.54644373        7994.43838429       -51106.91336635       -43112.47498207 
  4.2000e-013          152.99263507            0.00000000        8075.19450397       -51268.47478283       -43193.28027886 
  4.2500e-013          154.46013586    143085323.08777055        8152.65152874       -51423.44176080       -43270.79023207 
  4.3000e-013          155.85675251    126204752.86761500        8226.36717550       -51570.93012972       -43344.56295422 
  4.3500e-013          157.17887530            0.00000000        8296.15091853       -51710.55635861       -43414.40544008 
  4.4000e-013          158.42092601            0.00000000        8361.70832969       -51841.72974400       -43480.02141431 
  4.4500e-013          159.57760154    152653856.05838516        8422.75950284       -51963.88873371       -43541.12923087 
  4.5000e-013          160.63619867    255720157.90640175        8478.63394214       -52075.69680238       -43597.06286024 
  4.5500e-013          161.59776100    195158509.15631047        8529.38673065       -52177.25847029       -43647.87173964 
  4.6000e-013          162.46095766    122771375.54146920        8574.94762276       -52268.43149984       -43693.48387708 
  4.6500e-013          163.22083631     61009847.73461060        8615.05522604       -52348.69044925       -43733.63522321 
  4.7000e-013          163.87440432    362072685.36671883        8649.55158431       -52417.71613919       -43768.16455487 
  4.7500e-013          164.42499723    272262943.14835256        8678.61275362       -52475.85699191       -43797.24423829 
  4.8000e-013          164.87517110    217653739.84353027        8702.37364608       -52523.37820811       -43821.00456203 
  4.8500e-013          165.22529082    362270018.59813470        8720.85352145       -52560.31975885       -43839.46623739 
  4.9000e-013          165.48490515     70623628.69898708        8734.55637854       -52587.69050253       -43853.13412399 
  4.9500e-013          165.66545817     62055957.77344316        8744.08625421       -52606.70737601       -43862.62112181 
  5.0000e-013          165.77713649    113611559.94546339        8749.98081330       -52618.45977378       -43868.47896048 
  5.0500e-013          165.82727224    209042606.72663561        8752.62705810       -52623.73576165       -43871.10870355 
  5.1000e-013          165.81821558    303680635.47470737        8752.14903283       -52622.78984638       -43870.64081354 
  5.1500e-013          165.76189006    480562283.85003579        8749.17608253       -52616.87177810       -43867.69569558 
  5.2000e-013          165.66010699    355353041.07389444        8743.80381005       -52606.15890893       -43862.35509888 
  5.2500e-013          165.50941944    150128011.14914936        8735.85028211       -52590.27318229       -43854.42290018 
  5.3000e-013          165.30984038    149781058.00347191        8725.31618159       -52569.20524873       -43843.88906714 
  5.3500e-013          165.06927800    180913774.82131928        8712.61891667       -52543.79077479       -43831.17185811 
  5.4000e-013          164.79268889    231011241.36408499        8698.02010415       -52514.56065085       -43816.54054671 
  5.4500e-013          164.48884324     93318283.69285002        8681.98264758       -52482.45421258       -43800.47156499 
  5.5000e-013          164.16603633    201495616.36916032        8664.94438563       -52448.35582246       -43783.41143683 
  5.5500e-013          163.83168487    251884418.42358503        8647.29678376       -52413.05274682       -43765.75596306 
  5.6000e-013          163.49355661    308147982.55494398        8629.44983704       -52377.36262346       -43747.91278642 
  5.6500e-013          163.15018628    154509931.32489046        8611.32620488       -52341.12376370       -43729.79755882 
  5.7000e-013          162.80338087    184875843.71399298        8593.02126429       -52304.52143997       -43711.50017568 
  5.7500e-013          162.45676593    333923028.31182748        8574.72637653       -52267.93443097       -43693.20805444 
  5.8000e-013          162.11144209    373317514.51962954        8556.49963520       -52231.48502613       -43674.98539093 
  5.8500e-013          161.75853210    173207493.42926553        8537.87248486       -52194.23771947       -43656.36523461 
  5.9000e-013          161.40963126    187196654.56904835        8519.45694380       -52157.41451403       -43637.95757022 
  5.9500e-013          161.06704769    245844764.87386593        8501.37483829       -52121.25921165       -43619.88437336 
  6.0000e-013          160.73298182    215407966.34150833        8483.74231093       -52086.00125880       -43602.25894787 
  6.0500e-013          160.40620468    286121452.48879427        8466.49449394       -52051.50705198       -43585.01255804 
  6.1000e-013          160.08964089    473874564.91666424        8449.78575351       -52018.08167750       -43568.29592399 
  6.1500e-013          159.78493418    159537022.94812304        8433.70284915       -51985.89851769       -43552.19566854 
  6.2000e-013          159.48631661    198698684.92390957        8417.94133923       -51954.34757851       -43536.40623928 
  6.2500e-013          159.20149191    343750523.72257501        8402.90783866       -51924.24913263       -43521.34129397 
  6.3000e-013          158.94149821    242828738.35546017        8389.18495799       -51896.77674060       -43507.59178261 
  6.3500e-013          158.70896665    363072794.30181575        8376.91157254       -51872.21564768       -43495.30407514 
  6.4000e-013          158.50158096    306931870.09934479        8365.96542582       -51850.32989417       -43484.36446834 
  6.4500e-013          158.32140631    279426886.20199257        8356.45552161       -51831.33933559       -43474.88381398 
  6.5000e-013          158.16778198    390623997.02126110        8348.34698502       -51815.17157809       -43466.82459307 
  6.5500e-013          158.03235187    234252586.55709097        8341.19876874       -51800.94006445       -43459.74129570 
  6.6000e-013          157.90157580    268062293.60909638        8334.29619984       -51787.20425970       -43452.90805986 
  6.6500e-013          157.76321916     42743054.73828621        8326.99351623       -51772.66388903       -43445.67037279 
  6.7000e-013          157.60956710    205798274.68947214        8318.88351655       -51756.49475953       -43437.61124298 
  6.7500e-013          157.43679521    189059701.52859071        8309.76434131       -51738.28702781       -43428.52268650 
  6.8000e-013          157.23416248    298597218.78078496        8299.06906378       -51716.90370490       -43417.83464112 
  6.8500e-013          157.00879250    308292939.33339906        8287.17367807       -51693.09477363       -43405.92109557 
  6.9000e-013          156.76238129    208708161.46675485        8274.16770253       -51667.04121013       -43392.87350760 
  6.9500e-013          156.49361432    241979045.88434881        8259.98175466       -51638.60810005       -43378.62634539 
  7.0000e-013          156.21389264    390864824.74914318        8245.21759971       -51609.00568547       -43363.78808576 
  7.0500e-013          155.93117021    171457898.40684053        8230.29506006       -51579.08358648       -43348.78852642 
  7.1000e-013          155.66511426    383092534.51199871        8216.25220401       -51550.92261554       -43334.67041152 
  7.1500e-013          155.41844596    294216120.60258418        8203.23265907       -51524.82162186       -43321.58896279 
  7.2000e-013          155.20333433    195843135.34759310        8191.87872542       -51502.07013570       -43310.19141028 
  7.2500e-013          155.02788975    226082275.38102719        8182.61848161       -51483.52822900       -43300.90974738 
  7.3000e-013          154.89603041    246405062.27120540        8175.65873594       -51469.61183335       -43293.95309742 
  7.3500e-013          154.79323852    120562710.07640785        8170.23321663       -51458.78613140       -43288.55291477 
  7.4000e-013          154.72633364    329281115.44832051        8166.70187061       -51451.76389644       -43285.06202582 
  7.4500e-013          154.68104082    193281655.94314346        8164.31124340       -51447.03161957       -43282.72037617 
  7.5000e-013          154.65865669    379467087.61811352        8163.12977379       -51444.71548795       -43281.58571416 
  7.5500e-013          154.65132326    169423231.20158866        8162.74270359       -51443.97888482       -43281.23618124 
  7.6000e-013          154.65423873    139800629.51025560        8162.89658675       -51444.30977637       -43281.41318962 
  7.6500e-013          154.65867397    176274474.45595786        8163.13068571       -51444.78525269       -43281.65456698 
  7.7000e-013          154.65873697    133078865.64207894        8163.13401106       -51444.78201145       -43281.64800039 
  7.7500e-013          154.65161375    101434019.82730997        8162.75803589       -51444.00818304       -43281.25014715 
  7.8000e-013          154.65036411    297412062.57407832        8162.69207788       -51443.84694708       -43281.15486920 
  7.8500e-013          154.65622756    242542483.45315254        8163.00156020       -51444.43377903       -43281.43221883 
